$SEQPAR
ECHOT = 15.0
HZPPPM = 123.47
SEQ = PRESS
$END

$NMID
ID=GULXFHED
FMTDAT='2E16.6'
VOLUME=1.0
TRAMP=1.0
BRUKER=F
SEQACQ=F
$END

8.147237E-01   0.000000E+00
9.057919E-01   0.000000E+00
1.269868E-01   0.000000E+00
9.133759E-01   0.000000E+00
6.323592E-01   0.000000E+00
9.754040E-02   0.000000E+00
2.784982E-01   0.000000E+00
5.468815E-01   0.000000E+00
9.575068E-01   0.000000E+00
9.648885E-01   0.000000E+00
1.576131E-01   0.000000E+00
9.705928E-01   0.000000E+00
9.571669E-01   0.000000E+00
4.853756E-01   0.000000E+00
8.002805E-01   0.000000E+00
1.418863E-01   0.000000E+00
4.217613E-01   0.000000E+00
9.157355E-01   0.000000E+00
7.922073E-01   0.000000E+00
9.594924E-01   0.000000E+00
6.557407E-01   0.000000E+00
3.571168E-02   0.000000E+00
8.491293E-01   0.000000E+00
9.339932E-01   0.000000E+00
6.787352E-01   0.000000E+00
7.577401E-01   0.000000E+00
7.431325E-01   0.000000E+00
3.922270E-01   0.000000E+00
6.554779E-01   0.000000E+00
1.711867E-01   0.000000E+00
7.060461E-01   0.000000E+00
3.183285E-02   0.000000E+00
2.769230E-01   0.000000E+00
4.617139E-02   0.000000E+00
9.713178E-02   0.000000E+00
8.234578E-01   0.000000E+00
6.948286E-01   0.000000E+00
3.170995E-01   0.000000E+00
9.502220E-01   0.000000E+00
3.444608E-02   0.000000E+00
4.387444E-01   0.000000E+00
3.815585E-01   0.000000E+00
7.655168E-01   0.000000E+00
7.951999E-01   0.000000E+00
1.868726E-01   0.000000E+00
4.897644E-01   0.000000E+00
4.455862E-01   0.000000E+00
6.463130E-01   0.000000E+00
7.093648E-01   0.000000E+00
7.546867E-01   0.000000E+00
2.760251E-01   0.000000E+00
6.797027E-01   0.000000E+00
6.550980E-01   0.000000E+00
1.626117E-01   0.000000E+00
1.189977E-01   0.000000E+00
4.983641E-01   0.000000E+00
9.597440E-01   0.000000E+00
3.403857E-01   0.000000E+00
5.852678E-01   0.000000E+00
2.238119E-01   0.000000E+00
7.512671E-01   0.000000E+00
2.550951E-01   0.000000E+00
5.059571E-01   0.000000E+00
6.990767E-01   0.000000E+00
8.909033E-01   0.000000E+00
9.592914E-01   0.000000E+00
5.472155E-01   0.000000E+00
1.386244E-01   0.000000E+00
1.492940E-01   0.000000E+00
2.575083E-01   0.000000E+00
8.407173E-01   0.000000E+00
2.542822E-01   0.000000E+00
8.142848E-01   0.000000E+00
2.435250E-01   0.000000E+00
9.292636E-01   0.000000E+00
3.499838E-01   0.000000E+00
1.965953E-01   0.000000E+00
2.510839E-01   0.000000E+00
6.160447E-01   0.000000E+00
4.732888E-01   0.000000E+00
3.516595E-01   0.000000E+00
8.308286E-01   0.000000E+00
5.852641E-01   0.000000E+00
5.497236E-01   0.000000E+00
9.171937E-01   0.000000E+00
2.858390E-01   0.000000E+00
7.572002E-01   0.000000E+00
7.537291E-01   0.000000E+00
3.804458E-01   0.000000E+00
5.678216E-01   0.000000E+00
7.585429E-02   0.000000E+00
5.395012E-02   0.000000E+00
5.307976E-01   0.000000E+00
7.791672E-01   0.000000E+00
9.340107E-01   0.000000E+00
1.299062E-01   0.000000E+00
5.688237E-01   0.000000E+00
4.693906E-01   0.000000E+00
1.190207E-02   0.000000E+00
3.371226E-01   0.000000E+00
1.621823E-01   0.000000E+00
7.942845E-01   0.000000E+00
3.112150E-01   0.000000E+00
5.285331E-01   0.000000E+00
1.656487E-01   0.000000E+00
6.019819E-01   0.000000E+00
2.629713E-01   0.000000E+00
6.540791E-01   0.000000E+00
6.892145E-01   0.000000E+00
7.481516E-01   0.000000E+00
4.505416E-01   0.000000E+00
8.382138E-02   0.000000E+00
2.289770E-01   0.000000E+00
9.133374E-01   0.000000E+00
1.523780E-01   0.000000E+00
8.258170E-01   0.000000E+00
5.383424E-01   0.000000E+00
9.961347E-01   0.000000E+00
7.817553E-02   0.000000E+00
4.426783E-01   0.000000E+00
1.066528E-01   0.000000E+00
9.618981E-01   0.000000E+00
4.634224E-03   0.000000E+00
7.749105E-01   0.000000E+00
8.173032E-01   0.000000E+00
8.686947E-01   0.000000E+00
8.443585E-02   0.000000E+00
3.997826E-01   0.000000E+00
